inXitu Terra XRD/XRF. PLV file format Ver. 3.0
Sample= Dolomite_R050241
Instrument ID= Terra.
Date= 06/11/13
Time= 12:59:06
Start 2-theta scan= 3
End 2-theta scan= 50.5
Step size= 0.05
K-Alpha 1= 1.78897
Anode= Co
Filter= None
CoKaPeak= 468
splitThreshold= 30
axisX= 1065.06
axisY= 128
axisZ= 1293.03
sensorAngle1= 0.518144
sensorAngle2= 0
sensorAngle3= 0
integrationTime= 2500
Line   21
Line   22
Line   23
Line   24
Line   25
Line   26
Line   27
Line   28
Line   29
Line   30
Line   31
Line   32
Line   33
Line   34
Line   35
Line   36
Line   37
Line   38
Line   39
Line   40
Line   41
Line   42
Line   43
Line   44
Line   45
Line   46
Line   47
Line   48
Line   49
Data
3 207.671
3.05 223.432
3.1 174.961
3.15 194.475
3.2 215.956
3.25 189.878
3.3 153.305
3.35 212.466
3.4 216.304
3.45 186.263
3.5 184.198
3.55 181.765
3.6 187.867
3.65 191.951
3.7 176.612
3.75 172.102
3.8 183.895
3.85 148.02
3.9 152.977
3.95 159.811
4 179.617
4.05 161.082
4.1 175.825
4.15 172.861
4.2 155.884
4.25 159.652
4.3 173.003
4.35 190.062
4.4 152.697
4.45 193.324
4.5 174.179
4.55 163.603
4.6 160.967
4.65 151.691
4.7 182.588
4.75 175.292
4.8 168.042
4.85 153.734
4.9 167.502
4.95 176.211
5 170.078
5.05 163.092
5.1 168.616
5.15 168.498
5.2 149.32
5.25 183.599
5.3 176.823
5.35 185.338
5.4 177.274
5.45 183.482
5.5 180.369
5.55 163.16
5.6 163.877
5.65 164.421
5.7 179.249
5.75 185.269
5.8 161.837
5.85 182.244
5.9 164.683
5.95 182.213
6 196.08
6.05 190.498
6.1 204.121
6.15 212.155
6.2 196.688
6.25 196.659
6.3 211.6
6.35 243.813
6.4 229.626
6.45 218.345
6.5 200.886
6.55 211.162
6.6 190.796
6.65 228.803
6.7 202.502
6.75 226.383
6.8 230.797
6.85 215.237
6.9 194.517
6.95 182.441
7 170.403
7.05 186.217
7.1 175.763
7.15 193.765
7.2 180.53
7.25 177.115
7.3 186.139
7.35 172.708
7.4 185.719
7.45 173.678
7.5 165.279
7.55 174.172
7.6 172.046
7.65 194.667
7.7 176.913
7.75 177.215
7.8 180.032
7.85 179.906
7.9 192.415
7.95 186.621
8 169.854
8.05 178.484
8.1 189.352
8.15 170.534
8.2 180.678
8.25 195.877
8.3 177.051
8.35 185.353
8.4 188.998
8.45 161.38
8.5 193.357
8.55 218.451
8.6 174.886
8.65 190.97
8.7 188.427
8.75 186.265
8.8 190.08
8.85 186.596
8.9 173.011
8.95 196.434
9 193.141
9.05 185.769
9.1 204.122
9.15 195.101
9.2 197.308
9.25 187.661
9.3 202.189
9.35 188.68
9.4 193.504
9.45 201.278
9.5 227.736
9.55 203.269
9.6 199.643
9.65 197.636
9.7 213.803
9.75 203.957
9.8 205.811
9.85 200.611
9.9 199.832
9.95 197.962
10 207.194
10.05 186.204
10.1 206.566
10.15 196.354
10.2 191.28
10.25 215.401
10.3 210.878
10.35 194.924
10.4 209.813
10.45 199.345
10.5 218.89
10.55 223.301
10.6 241.17
10.65 225.504
10.7 237.753
10.75 224.047
10.8 215.498
10.85 220.14
10.9 209.223
10.95 223.75
11 228.953
11.05 236.761
11.1 225.023
11.15 220.821
11.2 248.918
11.25 243.503
11.3 245.774
11.35 237.938
11.4 231.528
11.45 220.227
11.5 248.946
11.55 245.55
11.6 247.904
11.65 242.409
11.7 212.822
11.75 228.469
11.8 233.721
11.85 244.178
11.9 235.954
11.95 250.002
12 256.5
12.05 246.598
12.1 261.571
12.15 261.877
12.2 280.504
12.25 260.558
12.3 244.679
12.35 256.089
12.4 288.137
12.45 254.774
12.5 260.929
12.55 258.845
12.6 275.092
12.65 263.064
12.7 256.047
12.75 271.601
12.8 271.056
12.85 233.163
12.9 254.776
12.95 257.431
13 285.369
13.05 247.513
13.1 245.258
13.15 247.008
13.2 254.243
13.25 263.367
13.3 266.471
13.35 268.845
13.4 264.887
13.45 263.986
13.5 264.471
13.55 257.196
13.6 272.955
13.65 288.833
13.7 270.178
13.75 288.702
13.8 285.864
13.85 273.954
13.9 262.678
13.95 235.508
14 284.156
14.05 278.976
14.1 293.54
14.15 269.846
14.2 263.591
14.25 286.045
14.3 280.209
14.35 259.601
14.4 259.007
14.45 254.476
14.5 256.777
14.55 266.463
14.6 268.316
14.65 251.084
14.7 276.486
14.75 277.085
14.8 272.129
14.85 263.81
14.9 274.655
14.95 258.797
15 262.291
15.05 271.393
15.1 288.321
15.15 281.206
15.2 253.202
15.25 270.853
15.3 245.087
15.35 275.669
15.4 285.784
15.45 264.516
15.5 271.312
15.55 258.841
15.6 252.445
15.65 269.347
15.7 288.362
15.75 262.2
15.8 257.651
15.85 290.247
15.9 283.494
15.95 281.66
16 253.041
16.05 286.944
16.1 262.259
16.15 285.748
16.2 294.734
16.25 295.212
16.3 267.219
16.35 285.453
16.4 277.317
16.45 281.166
16.5 285.982
16.55 296.229
16.6 276.302
16.65 268.679
16.7 251.614
16.75 267.552
16.8 257.559
16.85 260.358
16.9 262.468
16.95 277.68
17 299.258
17.05 281.301
17.1 267.893
17.15 269.361
17.2 288.35
17.25 269.605
17.3 285.985
17.35 291.036
17.4 293.748
17.45 299.809
17.5 307.389
17.55 286.127
17.6 295.518
17.65 264.863
17.7 288.684
17.75 285.449
17.8 254.191
17.85 298.223
17.9 258.248
17.95 306.083
18 273.829
18.05 266.917
18.1 254.987
18.15 283.07
18.2 302.711
18.25 279.712
18.3 289.027
18.35 289.806
18.4 273.459
18.45 261.344
18.5 263.198
18.55 249.553
18.6 297.101
18.65 281.117
18.7 278.577
18.75 265.55
18.8 277.45
18.85 278.344
18.9 295.854
18.95 277.745
19 249.664
19.05 275.604
19.1 281.283
19.15 289.576
19.2 294.478
19.25 275.504
19.3 263.823
19.35 277.438
19.4 286.043
19.45 278.092
19.5 278.064
19.55 284.97
19.6 264.46
19.65 266.248
19.7 273.749
19.75 279.713
19.8 260.428
19.85 262.378
19.9 260.154
19.95 278.563
20 270.125
20.05 274.884
20.1 266.635
20.15 260.12
20.2 279.198
20.25 275.171
20.3 260.092
20.35 271.688
20.4 268.464
20.45 275.24
20.5 277.35
20.55 272.369
20.6 266.932
20.65 261.744
20.7 256.534
20.75 272.094
20.8 283.192
20.85 273.662
20.9 246.126
20.95 271.067
21 254.217
21.05 236.985
21.1 276.689
21.15 246.06
21.2 280.198
21.25 272.04
21.3 258.451
21.35 247.957
21.4 277.161
21.45 269.334
21.5 263.23
21.55 253.116
21.6 256.98
21.65 264.926
21.7 278.218
21.75 256.813
21.8 234.822
21.85 272.668
21.9 273.635
21.95 255.921
22 244.107
22.05 256.087
22.1 274.122
22.15 247.392
22.2 221.773
22.25 242.012
22.3 245.179
22.35 254.305
22.4 231.804
22.45 255.488
22.5 258.898
22.55 250.657
22.6 245.623
22.65 239.669
22.7 256.801
22.75 262.613
22.8 246.584
22.85 246.815
22.9 250.618
22.95 245.968
23 240.785
23.05 258.329
23.1 254.374
23.15 236.804
23.2 249.286
23.25 265.123
23.3 251.118
23.35 259.252
23.4 244.195
23.45 230.587
23.5 269.333
23.55 262.033
23.6 271.335
23.65 276.656
23.7 264.71
23.75 263.205
23.8 231.896
23.85 254.123
23.9 256.12
23.95 246.084
24 259.461
24.05 244.466
24.1 275.867
24.15 246.609
24.2 239.897
24.25 247.01
24.3 245.425
24.35 246.044
24.4 242.42
24.45 217.109
24.5 225.658
24.55 238.473
24.6 246.459
24.65 216.131
24.7 230.524
24.75 252.837
24.8 258.818
24.85 258.762
24.9 254.808
24.95 274.717
25 236.223
25.05 236.995
25.1 249.026
25.15 241.174
25.2 243.472
25.25 268.257
25.3 248.568
25.35 252.924
25.4 247.541
25.45 268.837
25.5 307.192
25.55 299.1
25.6 342.858
25.65 322.673
25.7 316.088
25.75 292.274
25.8 244.126
25.85 241.103
25.9 257.834
25.95 248.707
26 248.925
26.05 222.803
26.1 239.87
26.15 246.676
26.2 240.227
26.25 218.771
26.3 232.822
26.35 252.477
26.4 241.755
26.45 231.196
26.5 229.532
26.55 230.98
26.6 241.724
26.65 238.453
26.7 246.118
26.75 239.831
26.8 238.039
26.85 233.317
26.9 234.584
26.95 217.838
27 229.874
27.05 236.368
27.1 230.054
27.15 230.899
27.2 220.558
27.25 238.914
27.3 235.021
27.35 232.931
27.4 228.519
27.45 258.867
27.5 212.021
27.55 220.119
27.6 224.702
27.65 229.153
27.7 230.314
27.75 239.515
27.8 273.616
27.85 309.321
27.9 371.386
27.95 415.061
28 440.172
28.05 398.896
28.1 355.189
28.15 313.312
28.2 278.929
28.25 233.815
28.3 226.17
28.35 217.372
28.4 207.447
28.45 226.245
28.5 210.441
28.55 228.638
28.6 220.239
28.65 218.872
28.7 217.175
28.75 218.985
28.8 224.427
28.85 193.918
28.9 221.514
28.95 208.825
29 218.443
29.05 212.316
29.1 227.302
29.15 236.888
29.2 223.365
29.25 217.686
29.3 204.933
29.35 224.14
29.4 232.756
29.45 194.107
29.5 230.711
29.55 226.279
29.6 207.833
29.65 227.03
29.7 219.712
29.75 213.456
29.8 217.283
29.85 199.617
29.9 217.604
29.95 223.279
30 221.478
30.05 221.373
30.1 227.177
30.15 265.168
30.2 240.783
30.25 227.613
30.3 244.711
30.35 229.562
30.4 219.95
30.45 249.298
30.5 235.219
30.55 217.53
30.6 223.775
30.65 202.525
30.7 219.553
30.75 223.6
30.8 221.68
30.85 217.974
30.9 216.613
30.95 241.991
31 209.299
31.05 254.486
31.1 239.486
31.15 222.324
31.2 208.939
31.25 224.732
31.3 222.663
31.35 210.019
31.4 203.994
31.45 209.664
31.5 197.991
31.55 208.323
31.6 199.095
31.65 195.186
31.7 188.241
31.75 211.613
31.8 214.53
31.85 189.923
31.9 189.302
31.95 193.909
32 215.404
32.05 207.899
32.1 203.662
32.15 184.592
32.2 201.571
32.25 200.343
32.3 214.446
32.35 211.761
32.4 226.21
32.45 212.513
32.5 225.61
32.55 224.807
32.6 224.284
32.65 218.396
32.7 236.364
32.75 194.746
32.8 212.164
32.85 204.053
32.9 197.685
32.95 201.311
33 209.485
33.05 201.072
33.1 193.628
33.15 191.509
33.2 195.152
33.25 199.722
33.3 180.944
33.35 176.9
33.4 205.035
33.45 212.47
33.5 190.755
33.55 196.462
33.6 187.697
33.65 204.268
33.7 203.682
33.75 203.119
33.8 221.919
33.85 194.233
33.9 200.039
33.95 197.502
34 192.913
34.05 208.36
34.1 193.644
34.15 190.499
34.2 190.647
34.25 191.998
34.3 201.759
34.35 191.625
34.4 185.319
34.45 193.442
34.5 159.182
34.55 196.982
34.6 181.719
34.65 198.281
34.7 194.194
34.75 172.969
34.8 169.269
34.85 165.731
34.9 182.419
34.95 199.896
35 173.22
35.05 182.979
35.1 184.983
35.15 199.392
35.2 214.991
35.25 200.952
35.3 191.017
35.35 209.062
35.4 220.718
35.45 216.455
35.5 241.426
35.55 228.103
35.6 234.61
35.65 248.704
35.7 230.522
35.75 295.858
35.8 422.171
35.85 721.23
35.9 1422.31
35.95 2291.69
36 3131.79
36.05 3720.69
36.1 3745
36.15 3231.38
36.2 2410.63
36.25 1637.97
36.3 958.711
36.35 518.014
36.4 327.065
36.45 246.471
36.5 223.782
36.55 240.451
36.6 223.009
36.65 205.812
36.7 199.002
36.75 197.179
36.8 198.691
36.85 189.094
36.9 182.823
36.95 199.957
37 176.34
37.05 199.04
37.1 207.955
37.15 194.21
37.2 181.236
37.25 193.9
37.3 191.299
37.35 183.686
37.4 175.494
37.45 168.21
37.5 182.145
37.55 193.149
37.6 192.545
37.65 192.73
37.7 172.066
37.75 211.111
37.8 184.524
37.85 181.946
37.9 179.393
37.95 175.496
38 174.381
38.05 156.402
38.1 183.675
38.15 163.612
38.2 177.568
38.25 167.216
38.3 160.917
38.35 175.219
38.4 163.834
38.45 153.397
38.5 169.069
38.55 165.857
38.6 183.728
38.65 162.874
38.7 178.001
38.75 177.963
38.8 179.111
38.85 153.353
38.9 196.839
38.95 210.083
39 271.878
39.05 331.141
39.1 398.318
39.15 409.919
39.2 379.066
39.25 307.329
39.3 281.544
39.35 209.002
39.4 174.07
39.45 199.895
39.5 154.34
39.55 154.371
39.6 180.309
39.65 163.209
39.7 153.293
39.75 147.919
39.8 168.474
39.85 150.356
39.9 166.977
39.95 153.163
40 157.39
40.05 136.873
40.1 157.194
40.15 166.385
40.2 167.948
40.25 155.121
40.3 160.522
40.35 150.181
40.4 156.335
40.45 165.703
40.5 170.508
40.55 150.706
40.6 172.134
40.65 145.07
40.7 150.832
40.75 144.055
40.8 152.206
40.85 158.909
40.9 144.442
40.95 153.942
41 187.554
41.05 208.203
41.1 263.389
41.15 313.862
41.2 326.947
41.25 323.236
41.3 289.389
41.35 287.037
41.4 245.995
41.45 199.969
41.5 150.126
41.55 161.692
41.6 147.882
41.65 145.839
41.7 151.919
41.75 156.575
41.8 131.764
41.85 141.384
41.9 158.887
41.95 133.445
42 168.388
42.05 133.906
42.1 134.735
42.15 134.185
42.2 140.576
42.25 129.986
42.3 127.935
42.35 142.759
42.4 145.155
42.45 143.532
42.5 131.865
42.55 156.44
42.6 133.079
42.65 125.216
42.7 136.672
42.75 154.711
42.8 131.191
42.85 137.07
42.9 140.047
42.95 115.579
43 128.88
43.05 152.853
43.1 144.817
43.15 132.067
43.2 139.618
43.25 152.841
43.3 145.091
43.35 138.752
43.4 164.047
43.45 200.17
43.5 237.837
43.55 325.98
43.6 351.208
43.65 336.319
43.7 331.667
43.75 312.782
43.8 235.527
43.85 201.687
43.9 152.918
43.95 148.39
44 137.853
44.05 126.234
44.1 124.702
44.15 136.813
44.2 127.834
44.25 125.755
44.3 119.638
44.35 128.972
44.4 112.268
44.45 131.46
44.5 106.131
44.55 118.248
44.6 141.389
44.65 124.73
44.7 121.259
44.75 129.494
44.8 119.622
44.85 136.657
44.9 123.147
44.95 151.856
45 142.846
45.05 116.418
45.1 116.583
45.15 121.763
45.2 109.456
45.25 117.122
45.3 118.342
45.35 118.775
45.4 106.434
45.45 114.963
45.5 128.805
45.55 125.246
45.6 126.112
45.65 104.693
45.7 105.318
45.75 101.478
45.8 118.896
45.85 121.299
45.9 111.015
45.95 116.057
46 113.86
46.05 131.758
46.1 117.607
46.15 101.508
46.2 137.596
46.25 104.163
46.3 130.104
46.35 123.458
46.4 113.77
46.45 110.687
46.5 104.489
46.55 104.25
46.6 129.994
46.65 123.57
46.7 106.016
46.75 117.174
46.8 122.2
46.85 109.657
46.9 100.783
46.95 112.39
47 120.84
47.05 95.3477
47.1 115.999
47.15 110.846
47.2 124.048
47.25 123.034
47.3 95.0866
47.35 112.004
47.4 103.695
47.45 103.389
47.5 116.655
47.55 101.221
47.6 120.406
47.65 120.079
47.7 122.251
47.75 122.15
47.8 141.425
47.85 162.867
47.9 219.829
47.95 374.672
48 555.986
48.05 679.902
48.1 732.989
48.15 731.238
48.2 612.751
48.25 491.848
48.3 339.435
48.35 262.414
48.4 171.532
48.45 124.827
48.5 122.259
48.55 114.303
48.6 93.0014
48.65 104.8
48.7 100.592
48.75 104.288
48.8 111.675
48.85 99.8526
48.9 110.914
48.95 98.8444
49 95.1083
49.05 79.4177
49.1 99.854
49.15 105.168
49.2 81.5356
49.25 86.3914
49.3 89.9521
49.35 102.37
49.4 80.7186
49.45 100.127
49.5 103.074
49.55 96.7725
49.6 99.5206
49.65 93.0155
49.7 107.532
49.75 102.964
49.8 78.3914
49.85 98.193
49.9 82.7133
49.95 102.002
50 92.796
50.05 91.7149
50.1 76.6184
50.15 114.019
50.2 74.4033
50.25 82.4084
50.3 88.2782
50.35 88.1116
50.4 93.2767
