inXitu Terra XRD/XRF. PLV file format Ver. 3.0
Sample= JB_Gypsum
Instrument ID= Terra.
Date= 06/19/13
Time= 11:58:21
Start 2-theta scan= 3
End 2-theta scan= 50.5
Step size= 0.05
K-Alpha 1= 1.78897
Anode= Co
Filter= None
CoKaPeak= 468
splitThreshold= 30
axisX= 1065.06
axisY= 128
axisZ= 1293.03
sensorAngle1= 0.518144
sensorAngle2= 0
sensorAngle3= 0
integrationTime= 2500
Line   21
Line   22
Line   23
Line   24
Line   25
Line   26
Line   27
Line   28
Line   29
Line   30
Line   31
Line   32
Line   33
Line   34
Line   35
Line   36
Line   37
Line   38
Line   39
Line   40
Line   41
Line   42
Line   43
Line   44
Line   45
Line   46
Line   47
Line   48
Line   49
Data
3 207.887
3.05 189.988
3.1 203.241
3.15 218.589
3.2 202.061
3.25 248.054
3.3 218.774
3.35 251.214
3.4 246.766
3.45 190.038
3.5 195.615
3.55 182.834
3.6 168.117
3.65 208.523
3.7 206.45
3.75 196.665
3.8 213.905
3.85 183.715
3.9 215.415
3.95 190.621
4 180.131
4.05 177.76
4.1 172.498
4.15 208.257
4.2 178.717
4.25 193.986
4.3 193.592
4.35 182.799
4.4 188.013
4.45 163.752
4.5 164.947
4.55 172.177
4.6 171.421
4.65 172.909
4.7 183.751
4.75 184.76
4.8 164.048
4.85 181.788
4.9 175.516
4.95 174.072
5 215.267
5.05 184.463
5.1 178.386
5.15 173.219
5.2 171.076
5.25 188.076
5.3 162.611
5.35 167.527
5.4 184.06
5.45 189.93
5.5 210.624
5.55 173.689
5.6 190.503
5.65 183.677
5.7 198.158
5.75 203.849
5.8 194.909
5.85 194.712
5.9 196.844
5.95 199.064
6 199.652
6.05 200.804
6.1 224.122
6.15 211.824
6.2 202.293
6.25 226.553
6.3 228.016
6.35 251.569
6.4 218.036
6.45 238.864
6.5 236.378
6.55 224.436
6.6 223.784
6.65 244.522
6.7 234.77
6.75 219.257
6.8 220.453
6.85 237.211
6.9 205.852
6.95 192.074
7 202.978
7.05 196.078
7.1 211.877
7.15 217.629
7.2 200.236
7.25 194.975
7.3 195.56
7.35 204.675
7.4 199.87
7.45 177.32
7.5 211.263
7.55 179.065
7.6 196.115
7.65 198.586
7.7 202.883
7.75 196.76
7.8 189.485
7.85 212.41
7.9 174.23
7.95 193.142
8 177.841
8.05 198.238
8.1 202.422
8.15 183.783
8.2 191.234
8.25 188.337
8.3 192.084
8.35 166.002
8.4 176.588
8.45 176.223
8.5 199.731
8.55 184.089
8.6 195.347
8.65 193.054
8.7 193.001
8.75 191.741
8.8 181.242
8.85 199.52
8.9 176.352
8.95 217.503
9 216.601
9.05 220.353
9.1 197.567
9.15 185.402
9.2 183.756
9.25 191.518
9.3 187.837
9.35 204.931
9.4 196.499
9.45 181.053
9.5 212.383
9.55 177.046
9.6 189.29
9.65 188.962
9.7 214.302
9.75 203.494
9.8 202.478
9.85 198.8
9.9 186.008
9.95 187.267
10 194.23
10.05 169.307
10.1 206.246
10.15 181.076
10.2 206.384
10.25 206.589
10.3 209.552
10.35 191.958
10.4 199.098
10.45 190.839
10.5 196.112
10.55 200.201
10.6 224.72
10.65 202.044
10.7 195.206
10.75 183.987
10.8 194.14
10.85 203.573
10.9 199.116
10.95 194.953
11 200.704
11.05 203.21
11.1 217.705
11.15 220.368
11.2 229.892
11.25 201.077
11.3 205.592
11.35 211.721
11.4 181.63
11.45 178.831
11.5 221.388
11.55 192.794
11.6 217.742
11.65 215.707
11.7 192.986
11.75 218.327
11.8 228.536
11.85 188.448
11.9 189.341
11.95 227.703
12 206.196
12.05 216.407
12.1 239.745
12.15 209.195
12.2 227.34
12.25 210.183
12.3 237.273
12.35 230.884
12.4 220.082
12.45 211.841
12.5 228.409
12.55 223.958
12.6 229.843
12.65 221.876
12.7 244.084
12.75 228.175
12.8 221.694
12.85 213.07
12.9 208.389
12.95 223.793
13 267.253
13.05 255.529
13.1 260.779
13.15 291.405
13.2 338.491
13.25 414.034
13.3 594.669
13.35 825.217
13.4 1023.34
13.45 1098.27
13.5 1144.46
13.55 958.568
13.6 726.114
13.65 483.19
13.7 362.177
13.75 300.746
13.8 246.804
13.85 218.458
13.9 244.316
13.95 188.368
14 229.247
14.05 229.804
14.1 212.036
14.15 232.854
14.2 203.794
14.25 225.895
14.3 229.2
14.35 209.077
14.4 252.036
14.45 214.407
14.5 229.854
14.55 237.385
14.6 228.567
14.65 218.082
14.7 217.803
14.75 206.713
14.8 201.798
14.85 184.554
14.9 204.087
14.95 210.736
15 177.242
15.05 201.085
15.1 194.893
15.15 222.439
15.2 200.553
15.25 193.854
15.3 201.075
15.35 184.36
15.4 217.787
15.45 219.324
15.5 202.227
15.55 195.365
15.6 212.311
15.65 195.302
15.7 187.254
15.75 188.742
15.8 188.05
15.85 222.94
15.9 225.021
15.95 211.007
16 199.313
16.05 187.374
16.1 229.438
16.15 225.749
16.2 237.487
16.25 201.874
16.3 194.047
16.35 200.256
16.4 175.486
16.45 203.4
16.5 201.988
16.55 206.395
16.6 224.996
16.65 192.097
16.7 184.538
16.75 200.586
16.8 199.545
16.85 210.167
16.9 191.419
16.95 220.271
17 201.052
17.05 196.16
17.1 196.01
17.15 211.072
17.2 202.217
17.25 209.84
17.3 201.79
17.35 207.815
17.4 203.562
17.45 191.959
17.5 196.39
17.55 188.199
17.6 174.969
17.65 171.38
17.7 189.083
17.75 197.976
17.8 203.943
17.85 196.765
17.9 179.094
17.95 183.309
18 193.912
18.05 208.052
18.1 199.895
18.15 174.335
18.2 208.01
18.25 192.176
18.3 187.221
18.35 178.686
18.4 185.326
18.45 197.141
18.5 165.942
18.55 187.402
18.6 198.603
18.65 167.329
18.7 199.622
18.75 195.1
18.8 170.694
18.85 197.37
18.9 203.525
18.95 179.518
19 182.868
19.05 177.797
19.1 193.297
19.15 172.285
19.2 193.612
19.25 179.975
19.3 170.861
19.35 207.696
19.4 192.4
19.45 166.672
19.5 201.216
19.55 201.655
19.6 162.179
19.65 158.062
19.7 176.337
19.75 180.25
19.8 180.194
19.85 194.346
19.9 167.367
19.95 192.745
20 199.748
20.05 190.576
20.1 178.962
20.15 161.179
20.2 199.764
20.25 177.936
20.3 172.016
20.35 187.378
20.4 149.08
20.45 173.836
20.5 182.641
20.55 188.152
20.6 171.804
20.65 198.913
20.7 192.72
20.75 182.865
20.8 176.562
20.85 173.282
20.9 197.911
20.95 178.203
21 183.684
21.05 166.334
21.1 163.842
21.15 165.531
21.2 185.785
21.25 168.918
21.3 180.862
21.35 175.684
21.4 184.565
21.45 191.113
21.5 184.224
21.55 188.386
21.6 211.786
21.65 224.989
21.7 218.949
21.75 192.68
21.8 205.811
21.85 201.015
21.9 171.024
21.95 173.319
22 154.983
22.05 165.496
22.1 184.633
22.15 155.999
22.2 184.47
22.25 184.29
22.3 160.958
22.35 161.278
22.4 145.976
22.45 157.63
22.5 171.183
22.55 160.501
22.6 166.054
22.65 170.777
22.7 169.195
22.75 156.105
22.8 168.004
22.85 170.988
22.9 156.937
22.95 177.376
23 186.52
23.05 169.405
23.1 161.766
23.15 166.897
23.2 175.779
23.25 166.236
23.3 190.35
23.35 179.605
23.4 170.84
23.45 192.208
23.5 196.028
23.55 190.427
23.6 185.557
23.65 209.258
23.7 201.679
23.75 253.38
23.8 309.481
23.85 432.39
23.9 711.832
23.95 1068.56
24 1420.38
24.05 1645.71
24.1 1682.46
24.15 1468.43
24.2 1091.14
24.25 760.004
24.3 469.951
24.35 309.978
24.4 215.2
24.45 197.413
24.5 190.228
24.55 177.174
24.6 186.669
24.65 171.699
24.7 161.811
24.75 176.587
24.8 177.467
24.85 180.21
24.9 155.507
24.95 183.411
25 180.011
25.05 165.901
25.1 161.867
25.15 148.634
25.2 155.418
25.25 153.645
25.3 162.876
25.35 160.734
25.4 152.776
25.45 166.35
25.5 157.84
25.55 164.714
25.6 158.984
25.65 147.095
25.7 140.283
25.75 170.746
25.8 154.446
25.85 152.667
25.9 158.806
25.95 158.917
26 165.707
26.05 147.234
26.1 160.712
26.15 137.241
26.2 161.352
26.25 168.523
26.3 156.678
26.35 151.79
26.4 167.243
26.45 162.801
26.5 155.233
26.55 167.56
26.6 141.367
26.65 144.366
26.7 157.864
26.75 153.648
26.8 158.709
26.85 148.107
26.9 161.685
26.95 177.867
27 201.658
27.05 239.822
27.1 254.62
27.15 323.061
27.2 339.736
27.25 327.338
27.3 248.286
27.35 214.263
27.4 168.049
27.45 180.115
27.5 131.407
27.55 144.674
27.6 153.708
27.65 139.374
27.7 147.81
27.75 146.132
27.8 161.887
27.85 143.679
27.9 142.529
27.95 153.204
28 138.894
28.05 143.739
28.1 137.992
28.15 133.89
28.2 147.531
28.25 151.79
28.3 151.496
28.35 139.353
28.4 132.642
28.45 160.476
28.5 149.729
28.55 142.345
28.6 139.836
28.65 129.781
28.7 148.309
28.75 147.146
28.8 154.378
28.85 138.174
28.9 131.817
28.95 141.06
29 141.498
29.05 107.576
29.1 153.863
29.15 122.498
29.2 126.682
29.25 130.971
29.3 129.986
29.35 137.092
29.4 154.552
29.45 165.283
29.5 185.667
29.55 160.948
29.6 173.206
29.65 188.913
29.7 173.748
29.75 172.583
29.8 149.412
29.85 145.407
29.9 149.812
29.95 161.354
30 148.861
30.05 144.113
30.1 161.6
30.15 144.559
30.2 152.65
30.25 162.291
30.3 153.347
30.35 188.54
30.4 154.723
30.45 155.944
30.5 173.077
30.55 160.883
30.6 138.017
30.65 143.106
30.7 136.458
30.75 148.435
30.8 141.001
30.85 153.247
30.9 157.07
30.95 158.809
31 161.622
31.05 185.341
31.1 149.957
31.15 138.49
31.2 144.434
31.25 142.487
31.3 149.135
31.35 135.149
31.4 145.097
31.45 132.685
31.5 122.263
31.55 125.576
31.6 134.4
31.65 142.795
31.7 119.01
31.75 137.431
31.8 152.073
31.85 129.171
31.9 138.254
31.95 114.42
32 124.072
32.05 122.693
32.1 140.624
32.15 151.317
32.2 145.193
32.25 145.036
32.3 131.778
32.35 139.452
32.4 119.963
32.45 140.507
32.5 154.348
32.55 160.546
32.6 179.727
32.65 190.135
32.7 212.518
32.75 187.466
32.8 214.247
32.85 182.245
32.9 158.412
32.95 133.944
33 139.833
33.05 139.304
33.1 141.708
33.15 157.322
33.2 124.481
33.25 125.071
33.3 129.102
33.35 123.788
33.4 141.841
33.45 160.085
33.5 140.101
33.55 163.862
33.6 206.685
33.65 222.743
33.7 310.892
33.75 475.65
33.8 632.28
33.85 773.369
33.9 847.661
33.95 737.653
34 667.832
34.05 513.964
34.1 339.677
34.15 272.711
34.2 188.128
34.25 166.038
34.3 143.632
34.35 153.118
34.4 117.526
34.45 133.793
34.5 121.663
34.55 148.761
34.6 127.287
34.65 125.164
34.7 138.336
34.75 125.665
34.8 118.363
34.85 119.803
34.9 135.312
34.95 132.448
35 138.371
35.05 130.722
35.1 124.178
35.15 137.495
35.2 142.735
35.25 126.93
35.3 128.46
35.35 121.629
35.4 141.773
35.45 149.702
35.5 138.369
35.55 134.157
35.6 138.245
35.65 140.423
35.7 140.68
35.75 138.229
35.8 146.393
35.85 168.757
35.9 185.121
35.95 209.776
36 308.934
36.05 409.642
36.1 606.184
36.15 767.738
36.2 897.088
36.25 896.722
36.3 818.927
36.35 725.289
36.4 626.098
36.45 481.508
36.5 318.664
36.55 231.886
36.6 187.324
36.65 148.461
36.7 127.155
36.75 138.842
36.8 128.65
36.85 119.109
36.9 114.245
36.95 117.5
37 142.721
37.05 138.704
37.1 152.254
37.15 160.004
37.2 190.828
37.25 226.414
37.3 259.496
37.35 259.732
37.4 269.485
37.45 247.956
37.5 239.487
37.55 226.51
37.6 181.721
37.65 171.482
37.7 126.838
37.75 123.355
37.8 137.012
37.85 120.557
37.9 132.628
37.95 142.189
38 141.554
38.05 130.7
38.1 142.624
38.15 126.465
38.2 142.079
38.25 132.207
38.3 119.023
38.35 126.949
38.4 109.576
38.45 123.499
38.5 141.513
38.55 146.647
38.6 183.736
38.65 231.372
38.7 373.475
38.75 512.299
38.8 614.265
38.85 657.742
38.9 694.362
38.95 680.391
39 599.179
39.05 427.748
39.1 355.65
39.15 264.972
39.2 196.538
39.25 171.089
39.3 153.241
39.35 136.398
39.4 106.176
39.45 131.376
39.5 118.012
39.55 114.534
39.6 143.978
39.65 131.286
39.7 125.912
39.75 121.322
39.8 127.345
39.85 123.032
39.9 121.659
39.95 128.958
40 120.309
40.05 126.306
40.1 144.734
40.15 161.965
40.2 154.908
40.25 172.626
40.3 179.018
40.35 152.089
40.4 173.641
40.45 157.797
40.5 132.782
40.55 117.595
40.6 126.432
40.65 122.938
40.7 117.431
40.75 122.773
40.8 114.052
40.85 118.782
40.9 115.576
40.95 101.01
41 110.51
41.05 107.172
41.1 117.327
41.15 111.055
41.2 100.859
41.25 125.176
41.3 106.153
41.35 115.106
41.4 121.823
41.45 127.778
41.5 106.322
41.55 122.98
41.6 117.512
41.65 133.039
41.7 135.332
41.75 136.422
41.8 181.655
41.85 200.842
41.9 219.977
41.95 244.564
42 240.759
42.05 236.041
42.1 212.662
42.15 165.126
42.2 149.274
42.25 156.659
42.3 129.923
42.35 146.619
42.4 148.166
42.45 147.599
42.5 143.284
42.55 185.087
42.6 159.525
42.65 232.567
42.7 190.807
42.75 197.072
42.8 186.224
42.85 169.884
42.9 160.083
42.95 153.746
43 140.326
43.05 124.154
43.1 127.865
43.15 112.028
43.2 104.06
43.25 116.132
43.3 131.332
43.35 126.208
43.4 113.893
43.45 135.077
43.5 148.142
43.55 143.748
43.6 138.819
43.65 146.509
43.7 143.139
43.75 122.651
43.8 95.3685
43.85 141.417
43.9 104.399
43.95 105.48
44 115.024
44.05 103.91
44.1 102.656
44.15 109.429
44.2 109.828
44.25 116.533
44.3 107.708
44.35 113.576
44.4 112.369
44.45 98.6542
44.5 111.988
44.55 117.9
44.6 139.716
44.65 107.223
44.7 108.797
44.75 117.222
44.8 102.773
44.85 117.726
44.9 125.387
44.95 131.686
45 126.917
45.05 115.838
45.1 111.63
45.15 117.102
45.2 130.122
45.25 115.297
45.3 117.023
45.35 105.783
45.4 105.163
45.45 106.253
45.5 117.231
45.55 120.799
45.6 104.55
45.65 106.407
45.7 98.4726
45.75 101.556
45.8 100.232
45.85 117.249
45.9 118.132
45.95 131.043
46 95.6225
46.05 109.25
46.1 114.054
46.15 102.734
46.2 115.488
46.25 120.777
46.3 121.076
46.35 112.013
46.4 106.507
46.45 120.099
46.5 110.583
46.55 89.2423
46.6 109.128
46.65 106.363
46.7 118.492
46.75 116.763
46.8 112.84
46.85 119.009
46.9 89.8046
46.95 103.061
47 104.291
47.05 101.978
47.1 115.066
47.15 123.773
47.2 138.995
47.25 137.585
47.3 142.355
47.35 183.561
47.4 196.46
47.45 234.469
47.5 247.231
47.55 214.511
47.6 193.874
47.65 178.275
47.7 167.763
47.75 159.546
47.8 127.011
47.85 128.829
47.9 116.648
47.95 105.662
48 104.86
48.05 100.861
48.1 99.8918
48.15 116.467
48.2 112.892
48.25 110.58
48.3 127.467
48.35 109.899
48.4 90.5166
48.45 94.966
48.5 111.576
48.55 105.635
48.6 105.208
48.65 109.829
48.7 102.548
48.75 109.437
48.8 105.857
48.85 98.8916
48.9 103.714
48.95 97.1157
49 105.387
49.05 103.564
49.1 107.182
49.15 140.958
49.2 100.165
49.25 94.8123
49.3 122.49
49.35 120.783
49.4 119.428
49.45 97.5531
49.5 104.856
49.55 113.7
49.6 108.476
49.65 92.3945
49.7 95.1572
49.75 108.107
49.8 87.6905
49.85 111.805
49.9 95.4719
49.95 97.4559
50 103.422
50.05 98.944
50.1 91.4125
50.15 120.811
50.2 100.688
50.25 110.119
50.3 96.4699
50.35 98.9867
50.4 137.347
