inXitu Terra XRD/XRF. PLV file format Ver. 3.0
Sample= CalciteP
Instrument ID= Terra.
Date= 06/12/13
Time= 10:58:50
Start 2-theta scan= 3
End 2-theta scan= 50.5
Step size= 0.05
K-Alpha 1= 1.78897
Anode= Co
Filter= None
CoKaPeak= 470
splitThreshold= 30
axisX= 1065.06
axisY= 128
axisZ= 1293.03
sensorAngle1= 0.518144
sensorAngle2= 0
sensorAngle3= 0
integrationTime= 2500
Line   21
Line   22
Line   23
Line   24
Line   25
Line   26
Line   27
Line   28
Line   29
Line   30
Line   31
Line   32
Line   33
Line   34
Line   35
Line   36
Line   37
Line   38
Line   39
Line   40
Line   41
Line   42
Line   43
Line   44
Line   45
Line   46
Line   47
Line   48
Line   49
Data
3 206.819
3.05 235.976
3.1 233.23
3.15 234.445
3.2 235.063
3.25 188.886
3.3 186.656
3.35 222.939
3.4 214.436
3.45 216.999
3.5 219.117
3.55 188.42
3.6 194.097
3.65 200.532
3.7 216.767
3.75 192.583
3.8 209.845
3.85 194.74
3.9 208.321
3.95 226.809
4 192.359
4.05 195.096
4.1 179.442
4.15 230.143
4.2 190.406
4.25 208.061
4.3 203.56
4.35 193.305
4.4 197.245
4.45 219.153
4.5 205.533
4.55 224.975
4.6 192.425
4.65 191.558
4.7 215.677
4.75 215.395
4.8 198.846
4.85 202.322
4.9 209.855
4.95 202.437
5 222.551
5.05 196.393
5.1 213.07
5.15 173.377
5.2 205.071
5.25 219.194
5.3 201.595
5.35 215.194
5.4 209.452
5.45 187.342
5.5 200.807
5.55 190.326
5.6 210.372
5.65 203.316
5.7 213.517
5.75 231.563
5.8 205.588
5.85 214.702
5.9 196.036
5.95 213.369
6 214.689
6.05 210.547
6.1 236.065
6.15 214.117
6.2 211.88
6.25 216.465
6.3 243.019
6.35 250.595
6.4 248.813
6.45 232.173
6.5 226.029
6.55 248.057
6.6 231.322
6.65 238.866
6.7 241.884
6.75 252.036
6.8 257.179
6.85 237.642
6.9 238.056
6.95 215.362
7 218.036
7.05 225.74
7.1 229.78
7.15 229.587
7.2 212.611
7.25 220.269
7.3 225.521
7.35 228.584
7.4 226.559
7.45 214.621
7.5 220.45
7.55 217.336
7.6 221.324
7.65 228.92
7.7 228.145
7.75 220.729
7.8 235.715
7.85 247.736
7.9 235.305
7.95 232.277
8 209.233
8.05 222.383
8.1 233.462
8.15 238.189
8.2 232.613
8.25 248.617
8.3 238.986
8.35 248.183
8.4 240.198
8.45 218.052
8.5 242.989
8.55 251.311
8.6 255.145
8.65 242.104
8.7 220.618
8.75 259.203
8.8 263.585
8.85 254.404
8.9 231.566
8.95 259.656
9 253.642
9.05 256.321
9.1 253.026
9.15 263.134
9.2 259.631
9.25 241.47
9.3 264.743
9.35 263.826
9.4 261.498
9.45 236.574
9.5 253.079
9.55 245.249
9.6 247.62
9.65 249.522
9.7 264.55
9.75 277.29
9.8 266.648
9.85 240.703
9.9 280.554
9.95 254.355
10 247.298
10.05 245.171
10.1 266.973
10.15 269.312
10.2 272.622
10.25 294.791
10.3 301.596
10.35 277.357
10.4 291.163
10.45 290.38
10.5 265.076
10.55 272.959
10.6 272.052
10.65 285.19
10.7 280.323
10.75 295.589
10.8 288.735
10.85 294.68
10.9 292.532
10.95 269.521
11 285.15
11.05 294.181
11.1 281.627
11.15 274.994
11.2 300.902
11.25 314.463
11.3 291.385
11.35 271.301
11.4 275.346
11.45 277.675
11.5 292.426
11.55 284.073
11.6 285.631
11.65 286.092
11.7 289.973
11.75 295.469
11.8 285.519
11.85 263.097
11.9 317.029
11.95 344.544
12 339.294
12.05 319.56
12.1 353.744
12.15 297.718
12.2 312.362
12.25 315.66
12.3 326.051
12.35 284.542
12.4 303.667
12.45 318.602
12.5 330.19
12.55 303.249
12.6 326.625
12.65 311.276
12.7 340.682
12.75 320.131
12.8 347.172
12.85 309.387
12.9 309.267
12.95 338.42
13 347.148
13.05 337.98
13.1 309.259
13.15 306.03
13.2 308.738
13.25 346.246
13.3 332.125
13.35 318.71
13.4 322.267
13.45 366.797
13.5 348.875
13.55 319.133
13.6 336.23
13.65 326.544
13.7 292.075
13.75 335.17
13.8 317.128
13.85 320.645
13.9 339.975
13.95 304.171
14 317.454
14.05 347.067
14.1 317.78
14.15 318.043
14.2 316.59
14.25 322.468
14.3 332.797
14.35 289.074
14.4 316.793
14.45 325.196
14.5 341.886
14.55 333.761
14.6 321.231
14.65 344.376
14.7 298.672
14.75 371.241
14.8 337.032
14.85 338.236
14.9 338.815
14.95 320.304
15 300.046
15.05 315.469
15.1 328.358
15.15 341.367
15.2 323.899
15.25 323.898
15.3 300.311
15.35 304.429
15.4 343.204
15.45 338.713
15.5 315.108
15.55 329.701
15.6 377.616
15.65 335.523
15.7 335.511
15.75 324.779
15.8 311.04
15.85 296.712
15.9 309.858
15.95 345.34
16 304.245
16.05 306.47
16.1 306.781
16.15 316.805
16.2 344.37
16.25 328.184
16.3 302.028
16.35 322.416
16.4 329.187
16.45 320.888
16.5 349.146
16.55 331.531
16.6 306.715
16.65 298.892
16.7 334.87
16.75 337.45
16.8 291.746
16.85 328.275
16.9 322.933
16.95 336.611
17 332.889
17.05 327.622
17.1 312.473
17.15 345.937
17.2 317.389
17.25 309.716
17.3 320.325
17.35 320.183
17.4 317.4
17.45 330.076
17.5 312.661
17.55 311.586
17.6 325.003
17.65 315.813
17.7 324.59
17.75 293.833
17.8 280.827
17.85 331.44
17.9 323.447
17.95 319
18 332.206
18.05 317.832
18.1 325.025
18.15 321.539
18.2 322.179
18.25 330.795
18.3 300.419
18.35 330.052
18.4 320.853
18.45 311.22
18.5 283.731
18.55 289.744
18.6 301.782
18.65 294.848
18.7 289.405
18.75 319.25
18.8 283.509
18.85 296.929
18.9 315.148
18.95 319.952
19 316.861
19.05 318.364
19.1 329.473
19.15 300.684
19.2 311.356
19.25 326.719
19.3 290.661
19.35 325.604
19.4 322.507
19.45 313.753
19.5 313.794
19.55 292.305
19.6 321.833
19.65 313.214
19.7 307.652
19.75 318.388
19.8 290.351
19.85 304.547
19.9 280.366
19.95 278.343
20 310.859
20.05 297.46
20.1 307.641
20.15 306.94
20.2 302.703
20.25 298.12
20.3 326.436
20.35 328.912
20.4 316.987
20.45 314.176
20.5 290.91
20.55 324.15
20.6 271.645
20.65 292.892
20.7 297.072
20.75 292.113
20.8 313.888
20.85 310.141
20.9 302.711
20.95 314.248
21 313.612
21.05 283.896
21.1 281.621
21.15 282.618
21.2 298.064
21.25 294.96
21.3 301.044
21.35 307.679
21.4 301.695
21.45 298.421
21.5 289.974
21.55 294.322
21.6 292.522
21.65 307.273
21.7 305.263
21.75 336.953
21.8 301.742
21.85 311.615
21.9 304.065
21.95 289.422
22 287.645
22.05 287.092
22.1 295.511
22.15 306.199
22.2 297.115
22.25 288.386
22.3 306.119
22.35 287.915
22.4 305.27
22.45 278.996
22.5 313.619
22.55 276.599
22.6 275.862
22.65 280.559
22.7 293.312
22.75 268.571
22.8 287.308
22.85 290.253
22.9 271.37
22.95 292.817
23 307.091
23.05 287.879
23.1 272.289
23.15 287.892
23.2 298.065
23.25 289.954
23.3 312.444
23.35 294.467
23.4 264.077
23.45 307.846
23.5 287.302
23.55 261.895
23.6 275.406
23.65 308.414
23.7 294.136
23.75 301.445
23.8 278.921
23.85 295.067
23.9 293.114
23.95 294.723
24 284.385
24.05 291.364
24.1 289.418
24.15 291.62
24.2 278.615
24.25 296.355
24.3 275.488
24.35 298.035
24.4 280.733
24.45 291.539
24.5 282.029
24.55 278.172
24.6 252.281
24.65 264.758
24.7 280.93
24.75 308.695
24.8 290.784
24.85 311.249
24.9 254.392
24.95 283.928
25 290.867
25.05 287.574
25.1 275.5
25.15 272.111
25.2 265.046
25.25 289.028
25.3 277.236
25.35 285.918
25.4 276.434
25.45 278.171
25.5 262.367
25.55 282.004
25.6 268.794
25.65 264.257
25.7 260.074
25.75 275.904
25.8 252.38
25.85 272.848
25.9 280.85
25.95 282.309
26 265.754
26.05 272.85
26.1 282.991
26.15 282.628
26.2 297.879
26.25 275.776
26.3 266.358
26.35 269.648
26.4 266.3
26.45 249.857
26.5 269.607
26.55 295.143
26.6 286.821
26.65 302.576
26.7 373.35
26.75 408.153
26.8 423.674
26.85 404.951
26.9 391.68
26.95 342.189
27 319.184
27.05 281.883
27.1 273.139
27.15 287
27.2 260.703
27.25 274.341
27.3 267.533
27.35 273.539
27.4 253.58
27.45 279.118
27.5 252.359
27.55 248.621
27.6 262.753
27.65 276.138
27.7 286.06
27.75 270.067
27.8 251.578
27.85 240.534
27.9 261.196
27.95 256.997
28 258.376
28.05 244.868
28.1 255.598
28.15 254.449
28.2 239.863
28.25 270.507
28.3 265.215
28.35 244.764
28.4 263.377
28.45 258.019
28.5 240.336
28.55 256.408
28.6 244.808
28.65 248.29
28.7 255.407
28.75 269.601
28.8 257.017
28.85 249.782
28.9 258.779
28.95 256.607
29 249.786
29.05 230.713
29.1 249.513
29.15 268.608
29.2 249.215
29.25 245.3
29.3 229.067
29.35 248.799
29.4 256.5
29.45 266.123
29.5 257.473
29.55 253.069
29.6 247.108
29.65 245.388
29.7 262.325
29.75 243.172
29.8 246.406
29.85 243.061
29.9 239.132
29.95 257.113
30 247.854
30.05 252.973
30.1 256.572
30.15 265.492
30.2 259.012
30.25 284.694
30.3 257.31
30.35 268.647
30.4 250.549
30.45 284.741
30.5 262.763
30.55 259.809
30.6 257.367
30.65 246.719
30.7 241.587
30.75 256.63
30.8 248.931
30.85 264.602
30.9 262.418
30.95 278.921
31 284.373
31.05 276.01
31.1 271.346
31.15 244.355
31.2 247.562
31.25 248.261
31.3 235.994
31.35 255.053
31.4 270.392
31.45 250.833
31.5 242.734
31.55 237.96
31.6 250.806
31.65 256.968
31.7 244.724
31.75 242.205
31.8 242.138
31.85 212.974
31.9 231.419
31.95 245.968
32 211.265
32.05 249.402
32.1 223.158
32.15 244.452
32.2 230.235
32.25 228.744
32.3 225.578
32.35 246.441
32.4 248.876
32.45 231.718
32.5 204.435
32.55 215.778
32.6 221.135
32.65 226.263
32.7 248.523
32.75 245.859
32.8 233.069
32.85 235.026
32.9 223.516
32.95 241.05
33 227.55
33.05 234.686
33.1 224.521
33.15 214.401
33.2 206.592
33.25 236.322
33.3 207.718
33.35 227.668
33.4 228.18
33.45 238.089
33.5 222.973
33.55 225.716
33.6 220.551
33.65 235.786
33.7 256.1
33.75 263.307
33.8 250.603
33.85 229
33.9 261.606
33.95 308.099
34 376.494
34.05 598.293
34.1 945.871
34.15 1389.67
34.2 1747.85
34.25 1902.01
34.3 1726.7
34.35 1335.45
34.4 913.26
34.45 594.334
34.5 395.786
34.55 294.939
34.6 239.141
34.65 234.882
34.7 246.608
34.75 213.951
34.8 223.6
34.85 231.491
34.9 216.155
34.95 222.91
35 215.296
35.05 213.883
35.1 222.08
35.15 206.269
35.2 228.58
35.25 229.198
35.3 219.195
35.35 215.706
35.4 216.554
35.45 235.529
35.5 209.404
35.55 232.853
35.6 212.569
35.65 227.332
35.7 216.349
35.75 232.212
35.8 223.114
35.85 219.23
35.9 208.959
35.95 197.548
36 195.742
36.05 199.242
36.1 216.017
36.15 193.127
36.2 203.087
36.25 197.261
36.3 196.951
36.35 188.152
36.4 223.279
36.45 204.564
36.5 230.304
36.55 242.533
36.6 249.97
36.65 267.688
36.7 269.004
36.75 240.022
36.8 211.856
36.85 218.606
36.9 185.02
36.95 197.398
37 194.173
37.05 196.87
37.1 206.368
37.15 198.202
37.2 199.327
37.25 197.409
37.3 198.78
37.35 190.921
37.4 198.078
37.45 191.224
37.5 179.887
37.55 197.183
37.6 181.489
37.65 166.43
37.7 188.875
37.75 185.481
37.8 201.264
37.85 200.911
37.9 203.944
37.95 199.428
38 182.618
38.05 200.349
38.1 178.967
38.15 184.788
38.2 193.404
38.25 180.348
38.3 178.797
38.35 165.169
38.4 177.932
38.45 180.502
38.5 179.85
38.55 175.851
38.6 192.889
38.65 182.376
38.7 177.677
38.75 186.023
38.8 172.102
38.85 163.411
38.9 179.93
38.95 178.754
39 189.14
39.05 167.895
39.1 170.118
39.15 177.165
39.2 156.578
39.25 157.702
39.3 188.084
39.35 180.784
39.4 154.517
39.45 174.733
39.5 169.974
39.55 172.267
39.6 185.918
39.65 169.844
39.7 159.126
39.75 160.815
39.8 167.77
39.85 174.642
39.9 179.399
39.95 168.161
40 153.579
40.05 169.445
40.1 168.835
40.15 168.616
40.2 154.547
40.25 167.124
40.3 175.209
40.35 159.789
40.4 160.603
40.45 165.405
40.5 169.181
40.55 176.929
40.6 158.806
40.65 158.22
40.7 157.362
40.75 162.688
40.8 162.546
40.85 148.568
40.9 163.096
40.95 152.173
41 162.483
41.05 149.037
41.1 170.666
41.15 174.047
41.2 147.408
41.25 166.016
41.3 159.139
41.35 157.065
41.4 159.515
41.45 159.199
41.5 153.395
41.55 184.945
41.6 152.677
41.65 148.345
41.7 166.245
41.75 152.596
41.8 173.843
41.85 229.717
41.9 261.643
41.95 272.15
42 283.713
42.05 261.408
42.1 223.835
42.15 198.303
42.2 178.003
42.25 173.812
42.3 135.744
42.35 159.265
42.4 139.815
42.45 142.343
42.5 143.169
42.55 163.132
42.6 150.381
42.65 171.742
42.7 143.065
42.75 153.589
42.8 129.726
42.85 123.007
42.9 132.394
42.95 124.26
43 157.162
43.05 153.776
43.1 150.389
43.15 146.698
43.2 136.993
43.25 131.53
43.3 121.341
43.35 130.162
43.4 120.012
43.45 156.337
43.5 139.127
43.55 136.237
43.6 136.826
43.65 142.698
43.7 122.464
43.75 121.312
43.8 108.461
43.85 151.303
43.9 118.047
43.95 128.058
44 132.198
44.05 127.859
44.1 130.185
44.15 134.476
44.2 119.533
44.25 128.635
44.3 121.912
44.35 128.84
44.4 111.334
44.45 108.046
44.5 124.168
44.55 124.467
44.6 145.219
44.65 122.658
44.7 121.657
44.75 133.967
44.8 122.388
44.85 142.61
44.9 145.773
44.95 145.369
45 136.582
45.05 130.39
45.1 111.909
45.15 116.65
45.2 108.872
45.25 116.217
45.3 119.351
45.35 116.175
45.4 127.582
45.45 121.438
45.5 133.994
45.55 139.854
45.6 122.858
45.65 115.849
45.7 115.049
45.75 116.97
45.8 123.289
45.85 155.495
45.9 190.494
45.95 270.132
46 294.201
46.05 318.353
46.1 281.721
46.15 281.163
46.2 234.043
46.25 175.898
46.3 160.338
46.35 130.113
46.4 124.33
46.45 120.397
46.5 105.796
46.55 91.8624
46.6 101.483
46.65 109.574
46.7 117.312
46.75 115.703
46.8 107.473
46.85 95.5203
46.9 101.961
46.95 116.378
47 110.144
47.05 103.859
47.1 99.1919
47.15 95.298
47.2 92.4634
47.25 81.546
47.3 98.7469
47.35 102.697
47.4 81.6697
47.45 89.0659
47.5 92.8728
47.55 102.109
47.6 101.374
47.65 101.756
47.7 98.5162
47.75 99.2946
47.8 89.0384
47.85 81.5694
47.9 75.687
47.95 82.4672
48 108.676
48.05 95.9464
48.1 86.971
48.15 112.717
48.2 100.367
48.25 84.8513
48.3 90.4977
48.35 82.9662
48.4 75.3042
48.45 76.3372
48.5 90.2106
48.55 93.977
48.6 106.314
48.65 77.442
48.7 76.3515
48.75 102.414
48.8 86.5693
48.85 71.2737
48.9 85.2442
48.95 94.9252
49 92.9087
49.05 75.5982
49.1 65.7633
49.15 93.6751
49.2 74.0076
49.25 60.0876
49.3 65.3025
49.35 75.2707
49.4 62.0666
49.45 62.6707
49.5 77.8879
49.55 73.7596
49.6 66.2127
49.65 75.0323
49.7 77.0791
49.75 76.3629
49.8 63.6154
49.85 82.1162
49.9 65.2318
49.95 64.3128
50 76.4676
50.05 87.7774
50.1 60.8672
50.15 73.0489
50.2 96.1711
50.25 83.8831
50.3 101.531
50.35 118.558
50.4 162.591
